Freq(Hz), SPL(dB), Phase(degrees)
9.888, 68.613, -167.580
10.254, 69.241, -173.381
10.620, 69.825, -179.007
10.986, 70.366, 175.532
11.353, 70.868, 170.230
11.719, 71.332, 165.079
12.085, 71.761, 160.075
12.451, 72.156, 155.213
12.817, 72.518, 150.492
13.184, 72.851, 145.911
13.550, 73.154, 141.467
13.916, 73.432, 137.161
14.282, 73.684, 132.989
14.648, 73.913, 128.950
15.015, 74.121, 125.042
15.381, 74.308, 121.264
15.747, 74.478, 117.611
16.113, 74.630, 114.082
16.479, 74.767, 110.672
16.846, 74.889, 107.379
17.212, 74.999, 104.199
17.578, 75.096, 101.130
17.944, 75.183, 98.166
18.311, 75.259, 95.305
18.677, 75.327, 92.541
19.043, 75.386, 89.872
19.409, 75.439, 87.293
19.775, 75.484, 84.800
20.142, 75.523, 82.390
20.508, 75.557, 80.059
20.874, 75.585, 77.804
21.240, 75.609, 75.622
21.606, 75.628, 73.509
21.973, 75.644, 71.462
22.339, 75.656, 69.478
22.705, 75.665, 67.554
23.071, 75.671, 65.689
23.438, 75.675, 63.879
23.804, 75.676, 62.122
24.170, 75.674, 60.416
24.536, 75.671, 58.758
24.902, 75.666, 57.145
25.269, 75.660, 55.577
25.635, 75.651, 54.051
26.001, 75.641, 52.565
26.367, 75.630, 51.118
26.733, 75.618, 49.708
27.100, 75.604, 48.334
27.466, 75.590, 46.994
27.832, 75.574, 45.687
28.198, 75.558, 44.412
28.564, 75.541, 43.167
28.931, 75.523, 41.951
29.297, 75.504, 40.763
29.663, 75.485, 39.601
30.029, 75.465, 38.465
30.396, 75.444, 37.354
30.762, 75.423, 36.267
31.128, 75.402, 35.203
31.494, 75.380, 34.162
31.860, 75.357, 33.143
32.227, 75.334, 32.144
32.593, 75.311, 31.166
32.959, 75.287, 30.207
33.325, 75.263, 29.268
33.691, 75.239, 28.347
34.058, 75.215, 27.443
34.424, 75.190, 26.556
34.790, 75.165, 25.685
35.156, 75.139, 24.830
35.522, 75.114, 23.991
35.889, 75.088, 23.168
36.255, 75.062, 22.359
36.621, 75.036, 21.564
36.987, 75.010, 20.782
37.354, 74.983, 20.014
37.720, 74.957, 19.258
38.086, 74.930, 18.516
38.452, 74.903, 17.787
38.818, 74.876, 17.070
39.185, 74.848, 16.365
39.551, 74.821, 15.670
39.917, 74.794, 14.985
40.283, 74.766, 14.311
40.649, 74.738, 13.648
41.016, 74.710, 12.996
41.382, 74.682, 12.354
41.748, 74.654, 11.722
42.114, 74.626, 11.099
42.480, 74.598, 10.485
42.847, 74.570, 9.880
43.213, 74.542, 9.283
43.579, 74.513, 8.695
43.945, 74.485, 8.115
44.312, 74.456, 7.544
44.678, 74.428, 6.981
45.044, 74.399, 6.426
45.410, 74.371, 5.878
45.776, 74.342, 5.338
46.143, 74.313, 4.805
46.509, 74.285, 4.278
46.875, 74.256, 3.759
47.241, 74.227, 3.247
47.607, 74.198, 2.743
47.974, 74.169, 2.246
48.340, 74.141, 1.756
48.706, 74.112, 1.270
49.072, 74.084, 0.789
49.438, 74.055, 0.311
49.805, 74.026, -0.160
50.171, 73.996, -0.622
50.537, 73.967, -1.076
50.903, 73.937, -1.521
51.270, 73.909, -1.962
51.636, 73.880, -2.399
52.002, 73.851, -2.833
52.368, 73.822, -3.262
52.734, 73.793, -3.686
53.101, 73.764, -4.104
53.467, 73.735, -4.516
53.833, 73.706, -4.923
54.199, 73.677, -5.327
54.565, 73.648, -5.726
54.932, 73.619, -6.121
55.298, 73.590, -6.511
55.664, 73.561, -6.896
56.030, 73.532, -7.276
56.396, 73.504, -7.653
56.763, 73.475, -8.025
57.129, 73.446, -8.394
57.495, 73.417, -8.758
57.861, 73.388, -9.118
58.228, 73.360, -9.475
58.594, 73.331, -9.827
58.960, 73.302, -10.176
59.326, 73.273, -10.520
59.692, 73.245, -10.861
60.059, 73.216, -11.197
60.425, 73.187, -11.530
60.791, 73.159, -11.860
61.157, 73.130, -12.187
61.523, 73.102, -12.510
61.890, 73.073, -12.830
62.256, 73.045, -13.146
62.622, 73.016, -13.458
62.988, 72.988, -13.768
63.354, 72.960, -14.075
63.721, 72.931, -14.378
64.087, 72.903, -14.679
64.453, 72.874, -14.976
64.819, 72.846, -15.269
65.186, 72.818, -15.560
65.552, 72.790, -15.848
65.918, 72.762, -16.134
66.284, 72.734, -16.416
66.650, 72.706, -16.696
67.017, 72.678, -16.973
67.383, 72.650, -17.247
67.749, 72.622, -17.519
68.115, 72.594, -17.787
68.481, 72.566, -18.053
68.848, 72.538, -18.317
69.214, 72.510, -18.578
69.580, 72.483, -18.837
69.946, 72.455, -19.093
70.312, 72.428, -19.347
70.679, 72.400, -19.598
71.045, 72.372, -19.847
71.411, 72.345, -20.093
71.777, 72.317, -20.336
72.144, 72.290, -20.577
72.510, 72.263, -20.816
72.876, 72.235, -21.053
73.242, 72.208, -21.289
73.608, 72.181, -21.522
73.975, 72.154, -21.753
74.341, 72.127, -21.982
74.707, 72.100, -22.208
75.073, 72.073, -22.432
75.439, 72.046, -22.654
75.806, 72.019, -22.874
76.172, 71.992, -23.093
76.538, 71.965, -23.309
76.904, 71.938, -23.523
77.271, 71.912, -23.735
77.637, 71.885, -23.945
78.003, 71.859, -24.153
78.369, 71.832, -24.360
78.735, 71.806, -24.565
79.102, 71.779, -24.769
79.468, 71.753, -24.970
79.834, 71.726, -25.169
80.200, 71.700, -25.366
80.566, 71.674, -25.561
80.933, 71.648, -25.755
81.299, 71.622, -25.948
81.665, 71.596, -26.139
82.031, 71.570, -26.328
82.397, 71.543, -26.515
82.764, 71.518, -26.701
83.130, 71.492, -26.885
83.496, 71.466, -27.067
83.862, 71.440, -27.248
84.229, 71.414, -27.427
84.595, 71.389, -27.605
84.961, 71.363, -27.782
85.327, 71.338, -27.957
85.693, 71.312, -28.131
86.060, 71.287, -28.303
86.426, 71.261, -28.473
86.792, 71.236, -28.641
87.158, 71.211, -28.809
87.524, 71.186, -28.975
87.891, 71.160, -29.140
88.257, 71.135, -29.303
88.623, 71.110, -29.465
88.989, 71.085, -29.625
89.355, 71.060, -29.784
89.722, 71.035, -29.942
90.088, 71.011, -30.098
90.454, 70.986, -30.253
90.820, 70.961, -30.407
91.187, 70.937, -30.560
91.553, 70.912, -30.712
91.919, 70.888, -30.863
92.285, 70.863, -31.012
92.651, 70.838, -31.160
93.018, 70.814, -31.306
93.384, 70.790, -31.450
93.750, 70.765, -31.595
94.116, 70.741, -31.738
94.482, 70.717, -31.880
94.849, 70.693, -32.022
95.215, 70.669, -32.161
95.581, 70.645, -32.300
95.947, 70.621, -32.437
96.313, 70.597, -32.573
96.680, 70.573, -32.709
97.046, 70.549, -32.843
97.412, 70.526, -32.976
97.778, 70.502, -33.108
98.145, 70.478, -33.239
98.511, 70.455, -33.369
98.877, 70.431, -33.498
99.243, 70.408, -33.626
99.609, 70.384, -33.753
99.976, 70.361, -33.878
100.342, 70.337, -34.003
100.708, 70.314, -34.126
101.074, 70.291, -34.248
101.440, 70.268, -34.370
101.807, 70.245, -34.491
102.173, 70.222, -34.612
102.539, 70.199, -34.731
102.905, 70.176, -34.849
103.271, 70.153, -34.966
103.638, 70.130, -35.083
104.004, 70.108, -35.198
104.370, 70.085, -35.312
104.736, 70.062, -35.426
105.103, 70.040, -35.539
105.469, 70.017, -35.651
105.835, 69.995, -35.762
106.201, 69.972, -35.872
106.567, 69.950, -35.981
106.934, 69.927, -36.090
107.300, 69.905, -36.197
107.666, 69.883, -36.304
108.032, 69.861, -36.410
108.398, 69.839, -36.516
108.765, 69.817, -36.621
109.131, 69.794, -36.725
109.497, 69.772, -36.828
109.863, 69.750, -36.929
110.229, 69.729, -37.030
110.596, 69.707, -37.131
110.962, 69.685, -37.231
111.328, 69.663, -37.330
111.694, 69.642, -37.429
112.061, 69.620, -37.526
112.427, 69.598, -37.623
112.793, 69.577, -37.719
113.159, 69.555, -37.814
113.525, 69.534, -37.909
113.892, 69.513, -38.003
114.258, 69.491, -38.096
114.624, 69.470, -38.188
114.990, 69.449, -38.280
115.356, 69.428, -38.371
115.723, 69.407, -38.462
116.089, 69.386, -38.552
116.455, 69.365, -38.641
116.821, 69.344, -38.730
117.188, 69.323, -38.818
117.554, 69.302, -38.905
117.920, 69.281, -38.992
118.286, 69.260, -39.079
118.652, 69.239, -39.164
119.019, 69.219, -39.249
119.385, 69.198, -39.332
119.751, 69.177, -39.415
120.117, 69.157, -39.498
120.483, 69.137, -39.580
120.850, 69.116, -39.662
121.216, 69.096, -39.743
121.582, 69.075, -39.824
121.948, 69.055, -39.904
122.314, 69.035, -39.983
122.681, 69.015, -40.062
123.047, 68.994, -40.140
123.413, 68.974, -40.217
123.779, 68.954, -40.294
124.146, 68.934, -40.371
124.512, 68.914, -40.447
124.878, 68.894, -40.522
125.244, 68.875, -40.597
125.610, 68.855, -40.672
125.977, 68.835, -40.745
126.343, 68.815, -40.818
126.709, 68.796, -40.891
127.075, 68.776, -40.963
127.441, 68.756, -41.035
127.808, 68.737, -41.105
128.174, 68.717, -41.176
128.540, 68.698, -41.245
128.906, 68.678, -41.314
129.272, 68.659, -41.384
129.639, 68.640, -41.453
130.005, 68.621, -41.521
130.371, 68.601, -41.590
130.737, 68.582, -41.657
131.104, 68.563, -41.724
131.470, 68.544, -41.789
131.836, 68.525, -41.854
132.202, 68.506, -41.919
132.568, 68.487, -41.984
132.935, 68.468, -42.049
133.301, 68.449, -42.113
133.667, 68.430, -42.177
134.033, 68.411, -42.240
134.399, 68.393, -42.302
134.766, 68.374, -42.365
135.132, 68.355, -42.426
135.498, 68.337, -42.487
135.864, 68.318, -42.548
136.230, 68.299, -42.608
136.597, 68.281, -42.668
136.963, 68.263, -42.727
137.329, 68.244, -42.786
137.695, 68.226, -42.844
138.062, 68.208, -42.902
138.428, 68.189, -42.959
138.794, 68.171, -43.017
139.160, 68.153, -43.074
139.526, 68.135, -43.131
139.893, 68.117, -43.188
140.259, 68.099, -43.245
140.625, 68.081, -43.300
140.991, 68.063, -43.355
141.357, 68.045, -43.409
141.724, 68.027, -43.462
142.090, 68.009, -43.516
142.456, 67.991, -43.570
142.822, 67.973, -43.624
143.188, 67.956, -43.677
143.555, 67.938, -43.729
143.921, 67.920, -43.781
144.287, 67.903, -43.832
144.653, 67.885, -43.884
145.020, 67.867, -43.935
145.386, 67.850, -43.986
145.752, 67.833, -44.036
146.118, 67.815, -44.085
146.484, 67.798, -44.135
146.851, 67.781, -44.184
147.217, 67.763, -44.233
147.583, 67.746, -44.281
147.949, 67.729, -44.329
148.315, 67.712, -44.375
148.682, 67.695, -44.422
149.048, 67.678, -44.469
149.414, 67.661, -44.517
149.780, 67.644, -44.566
150.146, 67.627, -44.614
150.513, 67.610, -44.660
150.879, 67.592, -44.705
151.245, 67.575, -44.747
151.611, 67.559, -44.790
151.978, 67.542, -44.834
152.344, 67.525, -44.879
152.710, 67.509, -44.923
153.076, 67.492, -44.967
153.442, 67.475, -45.010
153.809, 67.458, -45.052
154.175, 67.442, -45.095
154.541, 67.426, -45.137
154.907, 67.409, -45.180
155.273, 67.393, -45.222
155.640, 67.376, -45.264
156.006, 67.360, -45.305
156.372, 67.343, -45.346
156.738, 67.327, -45.387
157.104, 67.311, -45.427
157.471, 67.295, -45.467
157.837, 67.278, -45.507
158.203, 67.262, -45.547
158.569, 67.246, -45.586
158.936, 67.230, -45.625
159.302, 67.214, -45.664
159.668, 67.198, -45.702
160.034, 67.182, -45.740
160.400, 67.166, -45.778
160.767, 67.150, -45.816
161.133, 67.134, -45.853
161.499, 67.118, -45.890
161.865, 67.103, -45.926
162.231, 67.087, -45.963
162.598, 67.071, -45.999
162.964, 67.056, -46.035
163.330, 67.040, -46.071
163.696, 67.024, -46.107
164.062, 67.009, -46.142
164.429, 66.993, -46.177
164.795, 66.977, -46.211
165.161, 66.962, -46.245
165.527, 66.947, -46.280
165.894, 66.931, -46.314
166.260, 66.916, -46.348
166.626, 66.900, -46.382
166.992, 66.885, -46.415
167.358, 66.870, -46.448
167.725, 66.854, -46.481
168.091, 66.839, -46.513
168.457, 66.824, -46.546
168.823, 66.809, -46.578
169.189, 66.794, -46.610
169.556, 66.779, -46.642
169.922, 66.763, -46.673
170.288, 66.748, -46.704
170.654, 66.733, -46.735
171.021, 66.718, -46.766
171.387, 66.703, -46.796
171.753, 66.689, -46.827
172.119, 66.674, -46.857
172.485, 66.659, -46.887
172.852, 66.644, -46.917
173.218, 66.629, -46.947
173.584, 66.615, -46.976
173.950, 66.600, -47.005
174.316, 66.585, -47.034
174.683, 66.571, -47.063
175.049, 66.556, -47.091
175.415, 66.541, -47.119
175.781, 66.527, -47.147
176.147, 66.512, -47.175
176.514, 66.498, -47.203
176.880, 66.483, -47.230
177.246, 66.469, -47.257
177.612, 66.455, -47.284
177.979, 66.440, -47.311
178.345, 66.426, -47.337
178.711, 66.412, -47.364
179.077, 66.398, -47.391
179.443, 66.383, -47.417
179.810, 66.369, -47.443
180.176, 66.355, -47.469
180.542, 66.341, -47.494
180.908, 66.326, -47.519
181.274, 66.312, -47.544
181.641, 66.298, -47.569
182.007, 66.284, -47.594
182.373, 66.270, -47.618
182.739, 66.256, -47.643
183.105, 66.242, -47.667
183.472, 66.229, -47.691
183.838, 66.215, -47.715
184.204, 66.201, -47.739
184.570, 66.187, -47.763
184.937, 66.173, -47.786
185.303, 66.159, -47.809
185.669, 66.146, -47.832
186.035, 66.132, -47.855
186.401, 66.118, -47.878
186.768, 66.105, -47.900
187.134, 66.091, -47.922
187.500, 66.078, -47.944
187.866, 66.064, -47.967
188.232, 66.050, -47.989
188.599, 66.037, -48.012
188.965, 66.023, -48.033
189.331, 66.010, -48.055
189.697, 65.996, -48.075
190.063, 65.983, -48.096
190.430, 65.970, -48.117
190.796, 65.956, -48.138
191.162, 65.943, -48.159
191.528, 65.930, -48.179
191.895, 65.917, -48.199
192.261, 65.903, -48.219
192.627, 65.890, -48.239
192.993, 65.877, -48.259
193.359, 65.864, -48.279
193.726, 65.851, -48.298
194.092, 65.838, -48.318
194.458, 65.825, -48.337
194.824, 65.812, -48.356
195.190, 65.799, -48.374
195.557, 65.786, -48.393
195.923, 65.773, -48.412
196.289, 65.760, -48.431
196.655, 65.747, -48.450
197.021, 65.734, -48.469
197.388, 65.721, -48.487
197.754, 65.708, -48.505
198.120, 65.695, -48.524
198.486, 65.682, -48.542
198.853, 65.669, -48.560
199.219, 65.656, -48.577
199.585, 65.643, -48.591
199.951, 65.631, -48.605
200.317, 65.619, -48.620
200.684, 65.606, -48.637
201.050, 65.594, -48.656
201.416, 65.582, -48.675
201.782, 65.569, -48.693
202.148, 65.556, -48.710
202.515, 65.544, -48.725
202.881, 65.531, -48.741
203.247, 65.519, -48.757
203.613, 65.507, -48.773
203.979, 65.494, -48.789
204.346, 65.482, -48.805
204.712, 65.470, -48.819
205.078, 65.457, -48.834
205.444, 65.445, -48.849
205.811, 65.433, -48.865
206.177, 65.421, -48.880
206.543, 65.408, -48.895
206.909, 65.396, -48.909
207.275, 65.384, -48.923
207.642, 65.372, -48.938
208.008, 65.360, -48.953
208.374, 65.348, -48.968
208.740, 65.336, -48.983
209.106, 65.324, -48.996
209.473, 65.311, -49.010
209.839, 65.299, -49.022
210.205, 65.288, -49.035
210.571, 65.276, -49.049
210.938, 65.264, -49.062
211.304, 65.252, -49.076
211.670, 65.240, -49.090
212.036, 65.228, -49.103
212.402, 65.217, -49.116
212.769, 65.205, -49.129
213.135, 65.193, -49.142
213.501, 65.181, -49.155
213.867, 65.170, -49.167
214.233, 65.158, -49.180
214.600, 65.146, -49.192
214.966, 65.135, -49.204
215.332, 65.123, -49.216
215.698, 65.111, -49.228
216.064, 65.100, -49.240
216.431, 65.088, -49.252
216.797, 65.077, -49.264
217.163, 65.065, -49.276
217.529, 65.054, -49.288
217.896, 65.042, -49.299
218.262, 65.031, -49.310
218.628, 65.019, -49.321
218.994, 65.008, -49.332
219.360, 64.996, -49.343
219.727, 64.985, -49.354
220.093, 64.974, -49.365
220.459, 64.962, -49.376
220.825, 64.951, -49.386
221.191, 64.940, -49.397
221.558, 64.928, -49.407
221.924, 64.917, -49.417
222.290, 64.906, -49.427
222.656, 64.895, -49.437
223.022, 64.884, -49.447
223.389, 64.873, -49.457
223.755, 64.862, -49.468
224.121, 64.850, -49.477
224.487, 64.839, -49.487
224.854, 64.828, -49.496
225.220, 64.817, -49.505
225.586, 64.806, -49.515
225.952, 64.795, -49.524
226.318, 64.784, -49.534
226.685, 64.773, -49.543
227.051, 64.762, -49.552
227.417, 64.752, -49.561
227.783, 64.741, -49.570
228.149, 64.730, -49.579
228.516, 64.719, -49.589
228.882, 64.708, -49.598
229.248, 64.697, -49.607
229.614, 64.687, -49.615
229.980, 64.676, -49.623
230.347, 64.665, -49.631
230.713, 64.654, -49.639
231.079, 64.644, -49.647
231.445, 64.633, -49.656
231.812, 64.622, -49.664
232.178, 64.612, -49.672
232.544, 64.601, -49.680
232.910, 64.591, -49.687
233.276, 64.580, -49.695
233.643, 64.570, -49.702
234.009, 64.559, -49.709
234.375, 64.549, -49.717
234.741, 64.538, -49.724
235.107, 64.528, -49.732
235.474, 64.517, -49.739
235.840, 64.507, -49.746
236.206, 64.496, -49.752
236.572, 64.486, -49.759
236.938, 64.476, -49.766
237.305, 64.465, -49.774
237.671, 64.455, -49.781
238.037, 64.444, -49.787
238.403, 64.434, -49.794
238.770, 64.424, -49.800
239.136, 64.414, -49.806
239.502, 64.403, -49.813
239.868, 64.393, -49.819
240.234, 64.383, -49.826
240.601, 64.373, -49.831
240.967, 64.363, -49.837
241.333, 64.353, -49.843
241.699, 64.343, -49.849
242.065, 64.333, -49.856
242.432, 64.323, -49.862
242.798, 64.312, -49.868
243.164, 64.302, -49.874
243.530, 64.292, -49.879
243.896, 64.282, -49.884
244.263, 64.272, -49.888
244.629, 64.262, -49.893
244.995, 64.253, -49.897
245.361, 64.243, -49.903
245.728, 64.233, -49.910
246.094, 64.223, -49.917
246.460, 64.213, -49.923
246.826, 64.203, -49.927
247.192, 64.193, -49.931
247.559, 64.183, -49.935
247.925, 64.174, -49.940
248.291, 64.164, -49.946
248.657, 64.154, -49.952
249.023, 64.144, -49.958
249.390, 64.134, -49.961
249.756, 64.124, -49.962
250.122, 64.114, -49.964
250.488, 64.105, -49.967
250.854, 64.096, -49.972
251.221, 64.086, -49.978
251.587, 64.077, -49.984
251.953, 64.067, -49.989
252.319, 64.057, -49.993
252.686, 64.048, -49.997
253.052, 64.039, -50.001
253.418, 64.029, -50.006
253.784, 64.019, -50.011
254.150, 64.010, -50.015
254.517, 64.000, -50.019
254.883, 63.991, -50.022
255.249, 63.981, -50.025
255.615, 63.972, -50.029
255.981, 63.963, -50.032
256.348, 63.953, -50.036
256.714, 63.944, -50.039
257.080, 63.935, -50.042
257.446, 63.925, -50.046
257.812, 63.916, -50.049
258.179, 63.907, -50.053
258.545, 63.897, -50.055
258.911, 63.888, -50.058
259.277, 63.879, -50.061
259.644, 63.870, -50.064
260.010, 63.860, -50.067
260.376, 63.851, -50.070
260.742, 63.842, -50.073
261.108, 63.833, -50.075
261.475, 63.824, -50.078
261.841, 63.815, -50.080
262.207, 63.806, -50.083
262.573, 63.796, -50.087
262.939, 63.787, -50.090
263.306, 63.778, -50.093
263.672, 63.769, -50.095
264.038, 63.760, -50.097
264.404, 63.751, -50.099
264.771, 63.742, -50.101
265.137, 63.733, -50.103
265.503, 63.724, -50.105
265.869, 63.715, -50.108
266.235, 63.706, -50.110
266.602, 63.697, -50.112
266.968, 63.688, -50.113
267.334, 63.679, -50.115
267.700, 63.671, -50.117
268.066, 63.662, -50.119
268.433, 63.653, -50.120
268.799, 63.644, -50.122
269.165, 63.635, -50.124
269.531, 63.627, -50.126
269.897, 63.618, -50.127
270.264, 63.609, -50.129
270.630, 63.601, -50.131
270.996, 63.592, -50.133
271.362, 63.583, -50.135
271.729, 63.574, -50.136
272.095, 63.566, -50.138
272.461, 63.557, -50.139
272.827, 63.548, -50.140
273.193, 63.540, -50.141
273.560, 63.531, -50.142
273.926, 63.522, -50.143
274.292, 63.514, -50.144
274.658, 63.505, -50.145
275.024, 63.497, -50.146
275.391, 63.488, -50.147
275.757, 63.480, -50.148
276.123, 63.471, -50.149
276.489, 63.463, -50.150
276.855, 63.454, -50.151
277.222, 63.446, -50.152
277.588, 63.437, -50.153
277.954, 63.429, -50.154
278.320, 63.420, -50.155
278.687, 63.412, -50.156
279.053, 63.404, -50.156
279.419, 63.395, -50.156
279.785, 63.387, -50.156
280.151, 63.379, -50.157
280.518, 63.370, -50.158
280.884, 63.362, -50.159
281.250, 63.354, -50.160
281.616, 63.345, -50.160
281.982, 63.337, -50.160
282.349, 63.329, -50.160
282.715, 63.320, -50.159
283.081, 63.312, -50.158
283.447, 63.304, -50.158
283.813, 63.296, -50.158
284.180, 63.288, -50.158
284.546, 63.280, -50.159
284.912, 63.272, -50.159
285.278, 63.263, -50.159
285.645, 63.255, -50.159
286.011, 63.247, -50.159
286.377, 63.239, -50.158
286.743, 63.231, -50.158
287.109, 63.223, -50.158
287.476, 63.215, -50.158
287.842, 63.207, -50.159
288.208, 63.199, -50.159
288.574, 63.191, -50.158
288.940, 63.183, -50.158
289.307, 63.175, -50.157
289.673, 63.167, -50.157
290.039, 63.159, -50.156
290.405, 63.151, -50.156
290.771, 63.143, -50.155
291.138, 63.135, -50.155
291.504, 63.127, -50.154
291.870, 63.119, -50.154
292.236, 63.112, -50.154
292.603, 63.104, -50.153
292.969, 63.096, -50.152
293.335, 63.088, -50.151
293.701, 63.080, -50.150
294.067, 63.072, -50.150
294.434, 63.064, -50.148
294.800, 63.056, -50.146
295.166, 63.048, -50.144
295.532, 63.041, -50.142
295.898, 63.033, -50.142
296.265, 63.026, -50.143
296.631, 63.018, -50.144
296.997, 63.010, -50.143
297.363, 63.002, -50.141
297.729, 62.995, -50.140
298.096, 62.987, -50.141
298.462, 62.980, -50.144
298.828, 62.972, -50.148
299.194, 62.963, -50.149
299.561, 62.955, -50.145
299.927, 62.946, -50.138
300.293, 62.939, -50.130
300.659, 62.932, -50.125
301.025, 62.926, -50.124
301.392, 62.919, -50.125
301.758, 62.911, -50.127
302.124, 62.904, -50.127
302.490, 62.896, -50.125
302.856, 62.888, -50.122
303.223, 62.881, -50.120
303.589, 62.874, -50.119
303.955, 62.867, -50.119
304.321, 62.859, -50.117
304.688, 62.851, -50.115
305.054, 62.844, -50.112
305.420, 62.837, -50.109
305.786, 62.830, -50.107
306.152, 62.822, -50.106
306.519, 62.815, -50.105
306.885, 62.807, -50.104
307.251, 62.800, -50.102
